# AreTomo Alignment / Priims bprmMn 
# RawSize = 4096 4096 31
# NumPatches = 0
# AlphaOffset =     0.00
# BetaOffset =     0.00
# SEC     ROT         GMAG       TX          TY      SMEAN     SFIT    SCALE     BASE     TILT
    0    83.9394    1.00000    -44.819     49.542     1.00     1.00     1.00     0.00    -45.02
    1    83.9394    1.00000    -35.759     78.178     1.00     1.00     1.00     0.00    -42.01
    2    83.9394    1.00000    -24.717     24.220     1.00     1.00     1.00     0.00    -39.02
    3    83.9394    1.00000    -27.088     68.742     1.00     1.00     1.00     0.00    -36.01
    4    83.9394    1.00000    -16.930     14.205     1.00     1.00     1.00     0.00    -33.01
    5    83.9394    1.00000    -13.089     51.737     1.00     1.00     1.00     0.00    -30.02
    6    83.9394    1.00000    -15.953      2.295     1.00     1.00     1.00     0.00    -27.01
    7    83.9394    1.00000     -1.007     41.065     1.00     1.00     1.00     0.00    -24.02
    8    83.9394    1.00000    -16.634     -2.335     1.00     1.00     1.00     0.00    -21.01
    9    83.9394    1.00000     15.676     34.328     1.00     1.00     1.00     0.00    -18.01
   10    83.9394    1.00000    -21.807    -11.559     1.00     1.00     1.00     0.00    -15.01
   11    83.9394    1.00000      6.035     22.023     1.00     1.00     1.00     0.00    -12.02
   12    83.9394    1.00000    -10.918     -8.731     1.00     1.00     1.00     0.00     -9.02
   13    83.9394    1.00000      1.813      8.679     1.00     1.00     1.00     0.00     -6.02
   14    83.9394    1.00000    -12.987    -43.988     1.00     1.00     1.00     0.00     -3.02
   15    83.9394    1.00000      0.000      0.000     1.00     1.00     1.00     0.00     -0.03
   16    83.9394    1.00000      2.720     53.607     1.00     1.00     1.00     0.00      2.98
   17    83.9394    1.00000      8.445     -3.059     1.00     1.00     1.00     0.00      5.98
   18    83.9394    1.00000      2.665     15.393     1.00     1.00     1.00     0.00      8.98
   19    83.9394    1.00000      3.099    -10.179     1.00     1.00     1.00     0.00     11.98
   20    83.9394    1.00000     -7.880     12.574     1.00     1.00     1.00     0.00     14.98
   21    83.9394    1.00000     -6.006     -3.152     1.00     1.00     1.00     0.00     17.98
   22    83.9394    1.00000    -20.163     13.454     1.00     1.00     1.00     0.00     20.98
   23    83.9394    1.00000    -11.704     10.955     1.00     1.00     1.00     0.00     23.98
   24    83.9394    1.00000    -20.227     22.508     1.00     1.00     1.00     0.00     26.98
   25    83.9394    1.00000    -16.341     19.859     1.00     1.00     1.00     0.00     29.98
   26    83.9394    1.00000    -18.481     43.687     1.00     1.00     1.00     0.00     32.98
   27    83.9394    1.00000    -17.095     64.167     1.00     1.00     1.00     0.00     35.98
   28    83.9394    1.00000    -26.780     56.247     1.00     1.00     1.00     0.00     38.98
   29    83.9394    1.00000    -25.979     99.637     1.00     1.00     1.00     0.00     41.98
   30    83.9394    1.00000    -26.559     88.185     1.00     1.00     1.00     0.00     44.98
